 16 Solute 1
D (um)  K (mmHg.um.s/um3O2)
    4           3.45
    5           3.00
    6           2.74
    8           2.44
   10           2.27
   12           2.16
   14           2.08
   16           2.02
   18           1.974
   20           1.935
   22           1.895
   24           1.853
   28           1.815
   32           1.779
   40           1.750
   50           1.730
 1 Solute 2
D (um)  	K (s/um)
   10           0.1
 0 Solute 3
 0 Solute 4